##TITLE= Mattson Instruments
##JCAMP_DX= 4.24
##OWNER=
##ORIGIN=
##DATA TYPE= INFRARED SPECTRUM
##YUNITS= % Transmittance
##XUNITS= 1/CM
##FIRSTX= 401.12781972
##FIRSTY= 25.86957359
##LASTX= 3999.70720246
##XFACTOR= 1.00000000
##YFACTOR= 0.00049384
##MINY= 0.00000102
##MAXY= 32.36339187
##DELTAX= 3.85699826
##NPOINTS= 934
##XYDATA= (X++(Y..Y))
401.12  52384 53383 53893 53661 52932 52580
424.26  52959 53392 53308 52766 52015 51214
447.41  50475 49882 49505 49351 49366 49574
470.55  50231 51467 52818 53780 54316 54507
493.69  54232 53490 52486 51310 50234 50099
516.83  51532 53855 55684 56512 56756 56829
539.97  56837 56808 56771 56818 57109 57610
563.12  58038 58222 58343 58633 59065 59491
586.26  59823 60019 60050 59998 59974 59871
609.40  59439 58729 58242 58408 59127 59959
632.54  60582 60965 61168 61115 60720 60281
655.68  60197 60200 59734 59096 59277 60294
678.83  61320 62032 62593 63105 63521 63637
701.97  63121 62174 61718 62225 62978 63146
725.11  62729 61842 60226 58266 57439 58623
748.25  60426 60347 57667 54408 53178 54722
771.39  57844 60959 63246 64590 64746 63117
794.54  60088 57946 58700 61215 62501 61734
817.68  60930 61700 63403 64723 65338 65534
840.82  65385 64896 64332 63995 63774 63172
863.96  61943 60652 60342 61431 63234 64677
887.10  65192 64815 63919 63116 63011 63656
910.25  64373 64421 63777 63076 62827 62821
933.39  62443 61610 61125 61587 62203 61727
956.53  60314 58840 56646 52384 46817 43260
979.67  43083 45061 47400 48525 47314 44845
1002.81  44096 46205 49088 50556 50237 48377
1025.96  45576 43436 43206 44543 46822 49852
1049.10  52384 53638 52384 50056 50346 52384
1072.24  53405 52384 50320 46984 42097 36128
1095.38  30532 26414 23884 22073 18822 12170
1118.52  3962 0 4022 13037 20985 25525
1141.67  28532 31330 32978 33131 33213 34035
1164.81  34854 35282 35762 36007 35283 34258
1187.95  34478 36005 37176 36494 33689 29267
1211.09  23660 16896 9556 4177 4145 9962
1234.23  17784 22892 23745 22167 21097 22759
1257.38  27143 31155 31018 26869 23439 24913
1280.52  30541 36388 39725 40615 40693 41500
1303.66  43170 44256 43392 40514 35713 28660
1326.80  20831 16212 17802 24096 30387 33813
1349.94  35089 36198 38591 42286 45833 48112
1373.09  49524 50883 52384 53607 54483 54738
1396.23  54325 52384 47409 39857 34063 34570
1419.37  41085 47041 47816 44696 40950 38987
1442.51  38324 36558 32356 27060 24566 26646
1465.65  30966 36108 42141 47749 51025 51386
1488.80  48589 43513 38778 36659 39209 46150
1511.94  52384 54961 55578 56404 57672 58372
1535.08  57937 56781 56675 57734 58107 56849
1558.22  54801 53765 53352 52384 50211 46141
1581.36  40784 36414 35685 39233 44512 48740
1604.51  51194 52182 51707 49612 46739 44946
1627.65  45181 47135 49950 52384 53653 53887
1650.79  53923 54999 56641 57494 57280 56852
1673.93  56797 56398 55161 53689 52384 50514
1697.07  46635 39163 29840 22305 19481 23172
1720.22  27951 27327 23503 22497 27867 36006
1743.36  42859 48200 52384 55406 57467 58731
1766.50  59245 59402 59832 60649 61398 61693
1789.64  61557 61418 61648 62138 62564 62834
1812.78  63103 63386 63394 63001 62681 62902
1835.93  63261 63159 62750 62717 63189 63656
1859.07  63736 63442 63109 63137 63524 63870
1882.21  63898 63708 63573 63623 63760 63823
1905.35  63762 63646 63517 63352 63221 63272
1928.49  63456 63528 63340 63022 62839 62908
1951.64  63102 63224 63199 63105 63054 63089
1974.78  63171 63205 63101 62888 62722 62722
1997.92  62840 62951 63000 62995 62958 62916
2021.06  62912 62942 62949 62901 62820 62734
2044.20  62649 62583 62541 62495 62425 62365
2067.35  62355 62386 62435 62490 62551 62614
2090.49  62669 62706 62719 62709 62681 62649
2113.63  62617 62574 62519 62465 62418 62371
2136.77  62327 62289 62264 62265 62292 62326
2159.91  62335 62317 62303 62318 62351 62368
2183.06  62346 62302 62267 62262 62284 62314
2206.20  62322 62302 62277 62264 62240 62176
2229.34  62073 61953 61838 61744 61683 61655
2252.48  61648 61640 61626 61612 61598 61584
2275.62  61570 61556 61542 61528 61514 61500
2298.77  61486 61472 61458 61444 61430 61416
2321.91  61402 61388 61374 61360 61346 61332
2345.05  61318 61304 61290 61276 61262 61248
2368.19  61234 61220 61206 61192 61178 61164
2391.33  61150 61136 61122 61108 61094 61080
2414.48  61066 61052 61038 61024 61010 60996
2437.62  60899 60805 60737 60709 60724 60775
2460.76  60851 60928 60976 60988 60980 60962
2483.90  60939 60912 60880 60839 60795 60767
2507.04  60767 60793 60831 60861 60866 60847
2530.19  60806 60733 60635 60540 60472 60435
2553.33  60431 60458 60494 60515 60520 60510
2576.47  60469 60397 60327 60286 60261 60234
2599.61  60221 60223 60210 60164 60109 60049
2622.75  59963 59847 59735 59652 59589 59514
2645.90  59416 59317 59261 59252 59264 59283
2669.04  59327 59393 59454 59494 59506 59489
2692.18  59452 59416 59381 59331 59270 59219
2715.32  59195 59177 59143 59102 59089 59112
2738.46  59136 59129 59080 58999 58915 58855
2761.61  58823 58794 58757 58702 58626 58519
2784.75  58358 58123 57831 57490 57042 56438
2807.89  55712 54867 53791 52384 50641 48660
2831.03  46714 45315 44830 45097 45679 46390
2854.17  47286 48275 49038 49233 48757 47909
2877.32  47193 46789 46396 45702 44726 43651
2900.46  42697 42113 41828 41235 39953 38581
2923.60  37854 37322 36068 34510 34102 35345
2946.74  37298 39037 40526 41989 43419 44862
2969.88  46353 47490 47791 47518 47552 48334
2993.03  49411 50160 50544 50954 51599 52384
3016.17  53178 53933 54564 54951 55072 55050
3039.31  55050 55155 55331 55500 55611 55647
3062.45  55597 55500 55447 55496 55613 55738
3085.59  55837 55875 55826 55727 55676 55734
3108.74  55871 56006 56090 56144 56201 56242
3131.88  56231 56170 56092 56004 55882 55727
3155.02  55567 55402 55202 54977 54781 54641
3178.16  54535 54441 54362 54293 54199 54063
3201.30  53904 53749 53602 53453 53296 53142
3224.45  52987 52809 52601 52384 52183 51992
3247.59  51803 51627 51495 51422 51361 51242
3270.73  51062 50894 50787 50689 50533 50329
3293.87  50131 49940 49701 49413 49149 48943
3317.01  48715 48383 47978 47573 47168 46728
3340.16  46264 45799 45311 44783 44216 43586
3363.30  42883 42189 41591 41051 40494 39919
3386.44  39351 38791 38247 37758 37333 36934
3409.58  36506 35987 35346 34619 33881 33267
3432.72  33007 33303 34120 35218 36335 37308
3455.87  38072 38647 39144 39645 40119 40498
3479.01  40796 41114 41497 41879 42169 42373
3502.15  42582 42882 43287 43709 44007 44134
3525.29  44269 44623 45119 45467 45533 45509
3548.43  45714 46206 46648 46672 46367 46389
3571.58  47094 47943 48323 48216 48093 48342
3594.72  48878 49465 49963 50262 50310 50360
3617.86  50779 51373 51642 51727 52384 53413
3641.00  53859 53209 52228 52336 53423 54476
3664.14  54819 54091 52753 52418 53303 53938
3687.29  53650 53319 53855 54589 54620 54047
3710.43  53662 53765 53972 53997 53752 53146
3733.57  52452 52249 52428 52290 51882 52135
3756.71  53054 53786 53998 54074 54289 54417
3779.85  54338 54361 54643 54773 54257 53238
3803.00  52694 53117 53653 53384 52453 52115
3826.14  52724 53103 52475 51730 52163 52995
3849.28  52916 52083 51902 52380 52465 52100
3872.42  52110 52492 52556 52287 52345 52730
3895.56  52715 52107 51787 52327 52993 53086
3918.71  52774 52606 52623 52615 52668 52844
3941.85  52907 52771 52697 52822 52953 52965
3964.99  52911 52823 52688 52574 52535 52520
3988.13  52476 52427 52405 52384
##END=
